elapsed_time(s),inner_steps,outer_steps,pd_gap
1.9234e-5,0,1,0.01689531624479761
8.47957,1608580,11,0.011419354087655674
10.4168,2012725,21,0.008805303329544328
12.3563,2412515,31,0.007227907700810388
14.2691,2803611,41,0.006165384226728927
16.1067,3174619,51,0.005426276437462373
17.7683,3507852,61,0.0048788610364965766
19.3949,3830417,71,0.00443616719093096
20.8576,4127557,81,0.004079530427237075
22.2346,4399167,91,0.0037814673207351972
23.5572,4659225,101,0.0035265563309631164
24.8206,4903920,111,0.0033146806893891018
26.0334,5141477,121,0.0031315811287345487
27.2239,5374893,131,0.0029723490744311045
28.4849,5620355,141,0.0028312418503711016
29.6968,5857147,151,0.0027036953113895174
30.8973,6092498,161,0.0025899286655221287
32.09,6321430,171,0.0024863691723710658
33.1962,6537271,181,0.002391544744867897
34.2927,6748190,191,0.002303886539502269
35.3157,6945502,201,0.002223235879995863
36.4179,7160411,211,0.0021492613808860635
37.4852,7367477,221,0.0020802004972335347
38.5756,7577516,231,0.0020163413483008496
39.6603,7786048,241,0.0019588426377810247
40.7182,7990769,251,0.001905392079742706
41.6835,8178563,261,0.0018552001820773944
42.6337,8362273,271,0.001808133101741322
43.7364,8574788,281,0.0017634096466823419
44.6906,8759820,291,0.0017211378124943385
45.7129,8957920,301,0.0016855886286461577
46.6042,9128765,311,0.0016519759000133555
47.5369,9308036,321,0.0016198934445620337
48.4431,9481612,331,0.001589446067769236
49.3335,9651054,341,0.0015602341862511904
50.232,9821402,351,0.001532446494888184
51.1577,9996815,361,0.0015054292757455522
52.0576,10166921,371,0.001479384212127309
52.9076,10331047,381,0.0014571197012976985
53.7824,10496234,391,0.0014363857614201822
54.6449,10659331,401,0.001417373710219787
55.4708,10814829,411,0.0014010459604682658
56.3135,10971764,421,0.001384877129084446
57.1688,11132591,431,0.0013695393627312959
58.0417,11294476,441,0.0013552048165967664
58.8616,11448226,451,0.0013411021468968509
59.6326,11592956,461,0.0013273077417800937
60.4482,11746647,471,0.0013138912735969847
61.2304,11894200,481,0.0013006315066492018
61.9934,12037595,491,0.0012876081737521316
62.7873,12186969,501,0.0012747525360929622
63.5538,12329387,511,0.001262170022747245
64.2911,12467627,521,0.0012497373821775352
64.9971,12600179,531,0.0012374738400060085
65.7329,12739375,541,0.0012253011689554276
66.4595,12874276,551,0.001213397740801139
67.1573,13001136,561,0.001201475532752426
67.8525,13130821,571,0.0011897486297362796
68.5492,13262020,581,0.0011782285706491945
69.2721,13396488,591,0.0011670589899626313
69.975,13525257,601,0.0011561412052888635
70.6443,13650882,611,0.0011462084456995234
71.3208,13776936,621,0.0011370421575280128
71.96,13896851,631,0.0011278725069325864
72.5955,14015941,641,0.0011191282456089382
73.2319,14135042,651,0.0011121240030083062
73.8811,14256078,661,0.001105098655587583
74.4997,14369568,671,0.0010979258303595793
75.155,14489647,681,0.001090882821677788
75.8161,14607382,691,0.0010837290303606154
76.4408,14722333,701,0.0010764363803229312
77.0434,14834050,711,0.0010691063935447907
77.6526,14947986,721,0.0010617436601197457
78.2647,15061288,731,0.0010542839390772062
78.8689,15170826,741,0.0010468142923040161
79.4763,15282684,751,0.001039266160603361
80.0597,15391754,761,0.0010316953780835896
80.6328,15498946,771,0.0010242439422668923
81.2109,15607829,781,0.0010168102494989423
81.7939,15714155,791,0.001009273793573377
82.3574,15819129,801,0.001001891285282561
82.9276,15926459,811,0.0009947885431421128
83.5062,16034205,821,0.0009880934737596398
84.0783,16140850,831,0.000981285746675416
84.6544,16247201,841,0.00097446220996294
85.2339,16353323,851,0.0009676174064432649
85.8158,16459810,861,0.0009608481359208165
86.3791,16563403,871,0.0009539704218031828
86.9434,16666760,881,0.0009471211687304693
87.5059,16770824,891,0.0009402729299705318
88.0527,16872403,901,0.000933341170285094
88.6185,16977331,911,0.0009263525718741158
89.1555,17076572,921,0.000919495251141652
89.71,17179456,931,0.0009126266229945949
90.2321,17277842,941,0.0009062325098273347
90.7474,17373131,951,0.0008999380096319076
91.2898,17473692,961,0.0008937789381732973
91.8201,17571416,971,0.0008875075571921336
92.363,17671783,981,0.0008813466951712243
92.9226,17773426,991,0.0008757535696746702
93.445,17869612,1001,0.0008702773855912404
93.9718,17963523,1011,0.000864787894221123
94.46,18055742,1021,0.0008594059945772545
94.9943,18152604,1031,0.0008540100264122687
95.5131,18246672,1041,0.0008486744596213017
96.0031,18337921,1051,0.0008433161335467294
96.5111,18428943,1061,0.0008379741847340701
97.0201,18520438,1071,0.0008327081461350014
97.4943,18608350,1081,0.0008274675469167533
97.9975,18701414,1091,0.0008222449030302701
98.4916,18790961,1101,0.0008170203584301969
98.9637,18878204,1111,0.0008118244066632318
99.4056,18959562,1121,0.0008066530630704734
99.8756,19045725,1131,0.0008015384232663344
100.338,19130714,1141,0.0007964208150525592
100.755,19207626,1151,0.0007912556899689598
101.164,19283318,1161,0.0007861447087562697
101.592,19362893,1171,0.0007816244492073465
102.017,19441436,1181,0.0007772614227083852
102.469,19524227,1191,0.0007728825708099209
102.922,19607050,1201,0.0007684791349054521
103.34,19684039,1211,0.0007640311461884642
103.758,19760883,1221,0.0007595846023733324
104.179,19838434,1231,0.0007551396649739736
104.597,19915342,1241,0.0007507086818149718
105.0,19989850,1251,0.0007461981478511341
105.402,20063622,1261,0.000741677599387508
105.819,20139850,1271,0.0007371862841569401
106.244,20219338,1281,0.0007327175373579818
106.633,20292061,1291,0.0007281788459904594
107.038,20365600,1301,0.0007236691844112238
107.438,20438683,1311,0.0007191368326960861
107.821,20508882,1321,0.0007147975535937157
108.179,20574474,1331,0.0007106250915352701
108.555,20642935,1341,0.000706493396765177
108.954,20715812,1351,0.0007023944155290993
109.368,20791548,1361,0.0006983627869433413
109.763,20864609,1371,0.0006943068725499806
110.158,20938006,1381,0.0006911293318830579
110.5,21001110,1391,0.0006878953879287889
110.867,21068552,1401,0.000684704083577365
111.268,21141885,1411,0.0006815203646859599
111.648,21211311,1421,0.0006783546432037879
112.035,21281517,1431,0.0006757938062162457
112.393,21346927,1441,0.0006731798889798388
112.752,21412769,1451,0.0006705495848769328
113.24,21482815,1461,0.000667957393140425
113.578,21552399,1471,0.0006653367030192668
113.905,21620399,1481,0.0006626817503992445
114.237,21688436,1491,0.0006600069423742111
114.553,21753328,1501,0.0006573039809809576
114.872,21819053,1511,0.0006545499833045428
115.197,21886027,1521,0.0006518126700020086
115.529,21955069,1531,0.000649059883921773
115.855,22022247,1541,0.0006462882430181265
116.175,22088340,1551,0.0006434847629712605
116.482,22152169,1561,0.0006406746986385575
116.801,22218099,1571,0.0006378172966241165
117.123,22284558,1581,0.0006349560107769964
117.441,22350270,1591,0.0006320757183469056
117.761,22415303,1601,0.0006291671162935962
118.081,22481542,1611,0.0006262478728743699
118.396,22546933,1621,0.000623285945915826
118.709,22611573,1631,0.0006203072450063126
119.025,22676292,1641,0.0006173265901294363
119.344,22741272,1651,0.0006143163844912394
119.659,22805444,1661,0.00061134948877767
119.972,22869327,1671,0.0006083908579920545
120.293,22933824,1681,0.000605752543693043
120.615,22997974,1691,0.0006030903212088587
120.928,23060329,1701,0.0006004204189186714
121.216,23118909,1711,0.0005977127341365365
121.563,23185124,1721,0.0005950130520503746
121.846,23242501,1731,0.0005922726753436504
122.151,23304765,1741,0.0005895367352079153
122.447,23365449,1751,0.0005867925170300048
122.752,23428145,1761,0.0005840551915776825
123.069,23492923,1771,0.0005813072989090916
123.383,23556940,1781,0.0005785466091562611
123.691,23619083,1791,0.0005757604594043408
123.982,23678788,1801,0.0005729732728130925
124.295,23742935,1811,0.0005701785717037375
124.612,23807639,1821,0.0005673909121755548
124.914,23869125,1831,0.0005645729416980747
125.206,23928727,1841,0.0005617378171195991
125.509,23990209,1851,0.0005589038768471812
125.814,24051586,1861,0.0005560764774570036
126.121,24113407,1871,0.000553225563337232
126.413,24172673,1881,0.00055035357348018
126.722,24234407,1891,0.0005474923609516281
127.008,24292043,1901,0.0005449737049856521
127.311,24353494,1911,0.0005427865508321073
127.604,24413039,1921,0.0005405737319805742
127.885,24470486,1931,0.0005383860036006251
128.156,24525629,1941,0.0005361947508024517
128.44,24582968,1951,0.0005340107479904176
128.721,24639809,1961,0.0005318131540922848
129.01,24698152,1971,0.0005296098300430867
129.297,24756172,1981,0.00052739581009216
129.547,24806395,1991,0.0005251579389044473
129.836,24864236,2001,0.0005229948489298558
130.139,24925693,2011,0.0005209723813759601
130.415,24981547,2021,0.0005189151339226507
130.712,25040528,2031,0.0005169018160182774
130.993,25096790,2041,0.0005151669056699722
131.279,25154091,2051,0.0005134246693893913
131.563,25211499,2061,0.0005116508934082716
131.825,25263974,2071,0.0005098648907515581
132.105,25320317,2081,0.0005080811316822836
132.397,25379447,2091,0.0005063157902247921
132.682,25435936,2101,0.0005046319238842314
132.95,25489729,2111,0.0005031019558366153
133.235,25547371,2121,0.0005015858580279687
133.507,25602116,2131,0.0005000463965928285
133.775,25655367,2141,0.0004985090087687143
134.066,25713347,2151,0.000496955061199832
134.327,25766683,2161,0.0004953888080591936
134.608,25823476,2171,0.0004938130861950451
134.89,25878545,2181,0.0004922426227242944
135.155,25932236,2191,0.0004906589506266743
135.429,25986826,2201,0.0004890815664071839
135.717,26043213,2211,0.00048765639424735996
135.98,26096056,2221,0.0004865780088925426
136.246,26149766,2231,0.0004854968795625775
136.492,26199441,2241,0.0004843730361040119
136.749,26250722,2251,0.0004832504510251384
137.017,26304751,2261,0.00048212919451251154
137.296,26361271,2271,0.0004809838876697146
137.518,26406117,2281,0.00047984379422100036
137.755,26453499,2291,0.000478658987827894
137.995,26502011,2301,0.0004774538041814186
138.248,26552481,2311,0.0004763267774811203
138.516,26606003,2321,0.00047518411137464044
138.778,26657637,2331,0.0004740390714210261
139.003,26703032,2341,0.00047285072220341895
139.258,26754448,2351,0.000471642975688958
139.477,26798415,2361,0.0004704136357829552
139.701,26843762,2371,0.00046919464687499544
139.937,26891247,2381,0.00046794062869443855
140.171,26938377,2391,0.00046669186841091954
140.397,26983940,2401,0.00046542133264230665
140.667,27038318,2411,0.00046415976381205225
140.916,27088847,2421,0.00046284703444595364
141.15,27136168,2431,0.0004615385533516328
141.389,27184215,2441,0.000460197876638686
141.637,27233241,2451,0.0004588508692766925
141.89,27283909,2461,0.0004575005976014228
142.142,27334835,2471,0.00045618767296488894
142.393,27385727,2481,0.0004550332606449766
142.607,27429042,2491,0.00045385024693809194
142.828,27474104,2501,0.0004526634969699017
143.06,27521037,2511,0.00045147338581172196
143.319,27572739,2521,0.00045027216959979237
143.568,27622058,2531,0.00044905363704301517
143.801,27668932,2541,0.00044780449640695504
144.04,27716211,2551,0.00044653976255423083
144.271,27762888,2561,0.00044527676610407046
144.479,27804221,2571,0.00044398668957671035
144.692,27846170,2581,0.00044269905913663435
144.905,27889006,2591,0.0004413747105536988
145.132,27935233,2601,0.0004400540292402687
145.373,27984117,2611,0.00043873521829337556
145.583,28027063,2621,0.00043738245938168205
145.801,28071313,2631,0.0004360254356578757
146.03,28117684,2641,0.0004346625041886133
146.249,28161968,2651,0.00043328869732245194
146.466,28205949,2661,0.00043189687045227035
146.676,28248492,2671,0.00043047374058656496
146.889,28290305,2681,0.0004290762744946809
147.123,28337132,2691,0.00042765315891546245
147.348,28382695,2701,0.00042620761637141534
147.554,28423555,2711,0.00042475784993900936
147.743,28460900,2721,0.00042326825453492013
147.943,28500982,2731,0.0004217945129184001
148.137,28540667,2741,0.000420355037581914
148.357,28585352,2751,0.00041897937439466966
148.552,28624661,2761,0.0004175661262695099
148.768,28667887,2771,0.0004161811960679048
148.986,28711531,2781,0.00041478803433018033
149.179,28750822,2791,0.00041334135504086066
149.412,28797858,2801,0.0004119209916989084
149.644,28844120,2811,0.0004104925546680599
149.85,28885700,2821,0.00040903764133653174
150.066,28928908,2831,0.0004075695644024241
150.262,28968241,2841,0.00040611879654517576
150.475,29010979,2851,0.0004046375664409213
150.677,29050143,2861,0.00040317218960980554
150.881,29090737,2871,0.00040168215326403557
151.065,29128133,2881,0.0004001605687546546
151.263,29168400,2891,0.00039864255378342824
151.445,29205564,2901,0.00039710899760713424
151.673,29251657,2911,0.00039559545994842515
151.882,29294264,2921,0.00039408823861109867
152.087,29335953,2931,0.0003925341235173959
152.27,29373226,2941,0.00039098838625432376
152.461,29412054,2951,0.0003894188041842963
152.656,29451665,2961,0.00038787048805472013
152.858,29492735,2971,0.00038628173348353827
153.064,29533888,2981,0.00038473750608523233
153.274,29576363,2991,0.0003831614333241768
153.459,29613528,3001,0.0003815728479758373
153.661,29652331,3011,0.0003799933243407907
153.851,29689263,3021,0.0003783725137547038
154.055,29730496,3031,0.0003767865393798295
154.245,29768904,3041,0.0003753326248061503
154.429,29805601,3051,0.00037393584147768846
154.604,29840767,3061,0.000372540928004865
154.78,29875941,3071,0.00037115516677511083
154.954,29911097,3081,0.00036973135369914624
155.13,29946731,3091,0.0003683676409631433
155.31,29982591,3101,0.0003672338252881241
155.492,30019337,3111,0.00036616909371523475
155.692,30059370,3121,0.00036528948394743896
155.871,30095097,3131,0.0003644318236498533
156.037,30128286,3141,0.0003635777291903057
156.232,30167540,3151,0.00036270640816427405
156.411,30203596,3161,0.0003618044171731765
156.584,30237606,3171,0.000360890424018186
156.767,30274266,3181,0.00035998829141009776
156.948,30310124,3191,0.00035906275622178685
157.112,30343457,3201,0.0003581372615808504
157.289,30378986,3211,0.00035721525599415223
157.453,30412161,3221,0.0003562590690030353
157.632,30448184,3231,0.0003553330031963557
157.813,30484453,3241,0.000354404624541952
157.991,30519898,3251,0.0003534685504751056
158.173,30556640,3261,0.00035253757210999825
158.351,30592619,3271,0.0003516060182063626
158.518,30626082,3281,0.0003508856736493676
158.677,30657966,3291,0.0003501178443855654
158.867,30695956,3301,0.00034938994645324593
159.047,30731592,3311,0.0003486598921175581
159.224,30767043,3321,0.00034802072952014144
159.404,30802018,3331,0.0003473632931613301
159.575,30834533,3341,0.00034666897894281533
159.742,30866764,3351,0.00034597315408933446
159.914,30900845,3361,0.00034525691436471974
160.077,30933181,3371,0.0003445622343218168
160.251,30967691,3381,0.0003438396843275914
160.419,31000346,3391,0.0003430939707710738
160.561,31028234,3401,0.00034233450979711914
160.73,31061902,3411,0.00034159771896797274
160.88,31091826,3421,0.0003408153062379009
161.033,31123141,3431,0.00034003626581394567
161.192,31155329,3441,0.0003392025280320246
161.351,31187687,3451,0.0003383893994336005
161.498,31217421,3461,0.00033753080466310606
161.673,31252849,3471,0.0003366849884863486
161.826,31283923,3481,0.0003358264928206116
161.969,31312467,3491,0.0003349605941050885
162.138,31346656,3501,0.00033410511260975086
162.297,31378634,3511,0.00033325985895560004
162.454,31411002,3521,0.0003323828124171986
162.614,31443202,3531,0.000331627300372948
162.762,31472800,3541,0.00033103150159002545
162.921,31505096,3551,0.0003303933380948386
163.069,31534850,3561,0.00032979098170426643
163.22,31565390,3571,0.00032914525533023556
163.378,31597368,3581,0.0003284922916177418
163.545,31631378,3591,0.00032782553986450587
163.696,31661865,3601,0.00032712020825565943
163.852,31692394,3611,0.0003264275770843497
164.009,31723645,3621,0.0003257378839273354
164.173,31756005,3631,0.000325063388276604
164.324,31785006,3641,0.0003243537321490145
164.491,31817426,3651,0.0003236179291926933
164.643,31847025,3661,0.0003228962876688276
164.812,31878282,3671,0.0003221574889987443
164.977,31908182,3681,0.00032138656184100764
165.139,31939981,3691,0.00032060835422308837
165.296,31971387,3701,0.0003198136437659437
165.445,32001212,3711,0.00031903599024217695
165.581,32027510,3721,0.0003182452945190775
165.736,32057534,3731,0.0003174463766410125
165.89,32088089,3741,0.0003166187357811611
166.037,32117537,3751,0.00031581780427299665
166.185,32147341,3761,0.0003150913796425396
166.328,32175821,3771,0.0003143562364430058
166.487,32207138,3781,0.00031362743004775297
166.64,32237460,3791,0.0003128988344067978
166.794,32268263,3801,0.00031215188841782725
166.95,32299395,3811,0.00031139645959418066
167.103,32329596,3821,0.0003106512504266797
167.253,32359819,3831,0.0003098898882911653
167.419,32391557,3841,0.00030912926598495455
167.579,32421847,3851,0.0003083548642414443
167.746,32454454,3861,0.000307565388998449
167.925,32488922,3871,0.00030676193667309587
168.087,32518752,3881,0.000306027846377838
168.253,32549274,3891,0.000305267993746498
168.411,32576356,3901,0.0003044383183254378
168.595,32605032,3911,0.00030366483792182257
168.777,32636902,3921,0.00030288683335293574
168.943,32667990,3931,0.000302051389190261
169.078,32694409,3941,0.000301265817587576
169.232,32724374,3951,0.0003004669674190434
169.402,32757263,3961,0.0002996753574459783
169.581,32788446,3971,0.0002988296536227883
169.737,32815406,3981,0.00029800075297309846
169.896,32845149,3991,0.0002971693835411883
170.04,32873124,4001,0.00029636312102398685
170.196,32901481,4011,0.0002955437079951353
170.344,32927672,4021,0.00029471013118278523
170.502,32956911,4031,0.0002938520759818812
170.658,32986279,4041,0.000292954571043693
170.805,33014521,4051,0.0002921253399121391
170.957,33042710,4061,0.00029123830826435076
171.121,33073246,4071,0.0002903739517226018
171.265,33100130,4081,0.00028952169013393356
171.413,33129560,4091,0.00028865238076542996
171.56,33158086,4101,0.00028779070753223723
171.705,33186414,4111,0.00028690807743751365
171.845,33213723,4121,0.00028603493489408327
171.984,33241280,4131,0.0002851465731343178
172.121,33267269,4141,0.00028426056860841875
172.274,33296791,4151,0.00028335693302250844
172.419,33325334,4161,0.00028247672656252394
172.567,33355058,4171,0.0002816807584750721
172.714,33383804,4181,0.00028087662508330564
172.858,33412006,4191,0.0002801470833626984
172.991,33438661,4201,0.00027949500174416324
173.14,33468090,4211,0.00027884269809012353
173.293,33498370,4221,0.0002781725597995055
173.428,33525034,4231,0.00027750323717287174
173.573,33553832,4241,0.00027679183325482644
173.717,33582647,4251,0.0002761177507677546
173.832,33605918,4261,0.00027542486567832224
173.997,33638537,4271,0.00027473073884038725
174.136,33665958,4281,0.000274043462674867
174.293,33697031,4291,0.0002733469942664806
174.423,33723079,4301,0.0002726646588187276
174.567,33750294,4311,0.0002719721854488044
174.726,33780795,4321,0.0002712501220924115
174.862,33807140,4331,0.000270532634632838
175.007,33834936,4341,0.00026981127259547225
175.155,33863857,4351,0.0002690974434930212
175.294,33891849,4361,0.0002683570593912544
175.433,33919050,4371,0.0002676222862421033
175.582,33947935,4381,0.0002669028777892504
175.736,33977669,4391,0.0002661777660167598
175.867,34003294,4401,0.0002654422381963527
176.002,34029938,4411,0.0002647082249370592
176.124,34053898,4421,0.00026399160125824446
176.28,34084850,4431,0.00026326751918637377
176.413,34111261,4441,0.0002625362554517178
176.539,34136058,4451,0.0002618194388046384
176.664,34160341,4461,0.0002611100609289929
176.811,34189068,4471,0.00026051510022869623
176.941,34214658,4481,0.0002599640974874865
177.072,34240139,4491,0.00025942227842041914
177.21,34267058,4501,0.00025905987691742134
177.347,34293851,4511,0.00025870129916812437
177.485,34320319,4521,0.00025830683802169525
177.636,34349505,4531,0.00025794962325388464
177.777,34376897,4541,0.0002575612424770366
177.921,34405310,4551,0.0002571677718001403
