elapsed_time(s),inner_steps,outer_steps,pd_gap
1.8957e-5,0,1,0.01689531624479761
14.5917,2504679,11,0.011416866626920982
18.8386,3276541,21,0.008803191676178013
23.0875,4036927,31,0.007221871175151306
27.0565,4735645,41,0.006158231900108096
30.7134,5381249,51,0.005421761436023782
34.2483,6001010,61,0.004875141227157688
37.6268,6583644,71,0.004433414364210533
40.7343,7117843,81,0.004077075158233828
43.646,7612915,91,0.003780023733000796
46.3304,8070022,101,0.0035250143447608413
48.7474,8477194,111,0.003313871700999657
51.0294,8857534,121,0.003131876371869409
53.5291,9274177,131,0.002973534418616865
55.7945,9655461,141,0.002832398195540608
58.1101,10046295,151,0.0027051867589107763
60.2745,10409747,161,0.00259202786561937
62.255,10740501,171,0.002488771659771731
64.1175,11053716,181,0.0023939788356414776
66.086,11383045,191,0.002306563159000465
68.0244,11705683,201,0.0022266385421559065
69.7409,11995413,211,0.0021525300712688933
71.4565,12283297,221,0.002083337331212602
73.1011,12560491,231,0.0020190578801680594
74.6128,12816261,241,0.001961007120306108
76.2483,13081499,251,0.001907054298818784
77.6591,13349074,261,0.001856293880996441
79.1188,13620402,271,0.0018086330778216315
80.5119,13877252,281,0.0017635459034772288
81.7988,14114952,291,0.0017214181109828156
83.1122,14362320,301,0.0016857214295314098
84.4052,14598638,311,0.0016516319475839356
85.6435,14826024,321,0.0016190964429004546
86.8683,15048729,331,0.0015880775281781803
88.1265,15275353,341,0.0015585498307961795
89.2747,15479960,351,0.0015300624748180308
90.4493,15689928,361,0.0015026613597236768
91.6634,15906494,371,0.0014764488320243817
92.7789,16106042,381,0.001454162216813347
93.8865,16307909,391,0.0014328988734603424
94.9623,16504678,401,0.0014134101565270972
96.0432,16701217,411,0.0013967111306662089
97.1177,16895502,421,0.0013803811016605255
98.1882,17085116,431,0.0013647590480835425
99.3031,17280842,441,0.001350232976539422
100.363,17464288,451,0.0013359402725515914
101.448,17652800,461,0.0013222833795129736
102.545,17843550,471,0.0013089416210885427
103.655,18039518,481,0.0012957927216875366
104.723,18228159,491,0.0012829006984718672
105.763,18408997,501,0.001270166309149421
106.769,18588524,511,0.0012576443937663846
107.815,18766355,521,0.0012453326404038099
108.855,18946450,531,0.0012331836824965667
109.897,19125141,541,0.0012211889891215865
110.948,19306208,551,0.0012093634313152524
111.971,19482587,561,0.0011976200853280727
112.981,19658081,571,0.0011861094337647822
113.992,19831196,581,0.0011748767386094532
115.004,20003704,591,0.0011637735744116553
116.026,20178835,601,0.0011531897753564654
117.059,20351657,611,0.001144065641516678
118.056,20519367,621,0.0011349701261402483
119.063,20689343,631,0.0011260041285726836
120.071,20856567,641,0.0011174786519379271
121.016,21014889,651,0.0011099538572550936
121.999,21179596,661,0.0011029992902987125
122.981,21345684,671,0.0010960149954816721
123.919,21508496,681,0.0010889838870043848
124.86,21673045,691,0.0010819264348820457
125.73,21826120,701,0.0010748526115836772
126.625,21979924,711,0.001067730134832523
127.503,22133561,721,0.0010605659936885354
128.353,22281642,731,0.0010533536049232243
129.272,22434980,741,0.00104612240890971
130.157,22583495,751,0.001038821899525387
131.059,22732754,761,0.0010315057592159282
131.966,22884887,771,0.00102414891241763
132.857,23033967,781,0.0010167658283491456
133.718,23179126,791,0.0010093563232634658
134.575,23323353,801,0.0010018975300758876
135.464,23472067,811,0.0009948895994445171
136.313,23613341,821,0.0009881563833257587
137.169,23756387,831,0.0009813984761802737
137.969,23890243,841,0.0009745747585949704
138.814,24032690,851,0.000967739435427873
139.63,24170271,861,0.0009608731044897078
140.481,24310603,871,0.0009539913888238927
141.34,24452422,881,0.0009471008108661652
142.16,24588283,891,0.0009401815790064019
142.943,24720329,901,0.0009332408656605191
143.705,24847452,911,0.0009262911303173846
144.502,24981256,921,0.0009193579844308294
145.256,25112419,931,0.0009124297862002553
145.992,25239459,941,0.0009058495605225887
146.709,25363250,951,0.0008995827805298104
147.471,25490544,961,0.0008933338539608843
148.158,25609051,971,0.0008870644926606205
148.87,25732749,981,0.000881233107699499
149.589,25857108,991,0.0008756734971485415
150.27,25971759,1001,0.0008701035765728456
150.954,26089054,1011,0.0008645627884665951
151.644,26206412,1021,0.0008590368345351394
152.304,26317378,1031,0.000853533361742681
152.934,26425822,1041,0.0008480432463563448
153.544,26528101,1051,0.0008425905489809916
154.167,26631875,1061,0.00083715558584865
154.858,26746853,1071,0.000831764858248157
155.496,26854812,1081,0.000826386958222871
156.168,26965991,1091,0.0008210468639830038
156.752,27065089,1101,0.0008157048838660901
157.373,27169988,1111,0.0008104098843282597
157.915,27262872,1121,0.0008050997922423985
158.526,27364633,1131,0.0007998565265606526
159.122,27464089,1141,0.0007946071774354493
159.707,27561101,1151,0.0007894275725575887
160.324,27663686,1161,0.0007842559321338365
160.97,27770034,1171,0.0007795241105154581
161.541,27865444,1181,0.0007750631948135415
162.105,27960032,1191,0.0007705987698333923
162.643,28051699,1201,0.0007661179634050833
163.161,28140450,1211,0.000761605823082788
163.684,28228422,1221,0.0007570995087188715
164.259,28324456,1231,0.0007525941739977855
164.83,28420008,1241,0.0007480740302411928
165.336,28505423,1251,0.0007435269791600651
165.848,28594631,1261,0.0007389869824671238
166.299,28672844,1271,0.0007344198402149896
166.807,28760650,1281,0.0007298634653364177
167.301,28845531,1291,0.0007253007226353005
167.735,28919907,1301,0.000720725276988729
168.226,29002921,1311,0.0007161938444462824
168.736,29088723,1321,0.0007117840588574467
169.252,29175595,1331,0.000707635988225876
169.727,29255410,1341,0.0007035166462021521
170.197,29334695,1351,0.0006994003580931534
170.669,29414680,1361,0.0006952933113903124
171.165,29498007,1371,0.0006912567527759331
171.662,29581344,1381,0.0006880882007764561
172.165,29665731,1391,0.0006849118245466912
172.633,29744506,1401,0.0006817748340581554
173.076,29819497,1411,0.0006786148191712423
173.501,29890873,1421,0.0006757366556928868
173.94,29964308,1431,0.000673246378291914
174.375,30038251,1441,0.000670742229454133
174.744,30100913,1451,0.0006681755805782001
175.165,30172878,1461,0.0006656354619100999
175.595,30245404,1471,0.0006630697246209055
176.02,30317234,1481,0.0006604817795023855
176.462,30391148,1491,0.0006578793252752409
176.908,30465235,1501,0.0006552515510642454
177.311,30533787,1511,0.0006525954947011435
177.725,30605460,1521,0.000649907187470506
178.128,30674424,1531,0.0006472045970514293
178.521,30741452,1541,0.0006444828909243309
178.917,30808637,1551,0.0006417317201498508
179.296,30874012,1561,0.0006389705808962417
179.676,30938657,1571,0.0006361890471671856
180.083,31006325,1581,0.0006333837200928026
180.513,31078380,1591,0.0006305737295894953
180.86,31136812,1601,0.0006277167027741639
181.189,31192336,1611,0.0006248194685196731
181.565,31255189,1621,0.0006219348707294323
181.954,31320478,1631,0.0006190206069606064
182.327,31384499,1641,0.0006161001811021104
182.682,31447337,1651,0.0006131624518805161
183.04,31508258,1661,0.0006101870587714355
183.411,31571592,1671,0.0006071988829435184
183.806,31638976,1681,0.0006044663124108954
184.156,31698821,1691,0.0006018296189531439
184.52,31761306,1701,0.0005992339364975872
184.896,31826448,1711,0.0005966120158535284
185.268,31890153,1721,0.0005939845331463314
185.605,31947544,1731,0.0005913238481507609
185.952,32006855,1741,0.0005886720627207836
186.322,32069355,1751,0.0005860092606007009
186.68,32130321,1761,0.000583329779154455
187.039,32191572,1771,0.0005806260428670787
187.379,32250225,1781,0.0005779082702063471
187.724,32308802,1791,0.0005751885470705355
188.065,32366762,1801,0.0005724547703701236
188.395,32423020,1811,0.0005697242768463139
188.73,32479427,1821,0.0005669593245494035
189.056,32533394,1831,0.0005641677307093307
189.421,32594637,1841,0.0005613982669440166
189.787,32657441,1851,0.0005586282358571986
190.12,32714101,1861,0.0005558236094466221
190.454,32770220,1871,0.000553027867944228
190.792,32827441,1881,0.0005502180597493442
191.127,32884662,1891,0.0005474208598451134
191.444,32938398,1901,0.0005447842297406861
191.757,32990572,1911,0.0005426324554230286
192.088,33044888,1921,0.0005404700531990211
192.42,33100714,1931,0.0005383164341716019
192.733,33154330,1941,0.0005361540054457346
193.038,33205818,1951,0.0005339716804003379
193.358,33260526,1961,0.0005317959678911958
193.67,33314263,1971,0.0005296166918587458
193.957,33362310,1981,0.0005273911348316566
194.293,33417372,1991,0.0005251685730383489
194.623,33472463,2001,0.0005230502483284712
194.935,33523245,2011,0.0005209775747595669
195.25,33574983,2021,0.0005189370843586283
195.598,33633424,2031,0.0005169476732230054
195.905,33685311,2041,0.0005152191499462472
196.228,33741072,2051,0.0005134956394888968
196.517,33788992,2061,0.0005117372228993621
196.837,33841695,2071,0.000509969224949787
197.155,33893557,2081,0.0005082165159400204
197.455,33942815,2091,0.0005064468185581629
197.755,33991273,2101,0.0005047837122267324
198.057,34040376,2111,0.0005032714578207757
198.357,34089237,2121,0.0005017323395102528
198.645,34138371,2131,0.0005001873319323315
198.942,34188677,2141,0.0004986504496313753
199.255,34241788,2151,0.0004970974647932093
199.535,34288760,2161,0.0004955468059221965
199.829,34337532,2171,0.0004939639597052771
200.144,34389802,2181,0.0004923875833083308
200.427,34436624,2191,0.0004907953695249389
200.728,34486493,2201,0.0004892036803516818
201.021,34534526,2211,0.00048767096315435396
201.337,34586648,2221,0.00048656218671270027
201.63,34635188,2231,0.0004854436537996259
201.921,34683985,2241,0.00048426999039332536
202.208,34731378,2251,0.000483125026781505
202.513,34782424,2261,0.00048196856504658867
202.774,34825920,2271,0.0004807928585874744
203.056,34872255,2281,0.0004796046783869662
203.339,34918607,2291,0.0004783906361980686
203.604,34962311,2301,0.000477146977511984
203.873,35005649,2311,0.0004759604348180263
204.136,35049339,2321,0.00047476742328107953
204.399,35092488,2331,0.0004735547179073058
204.655,35134725,2341,0.00047232985508637894
204.92,35178902,2351,0.00047110980881285257
205.206,35226023,2361,0.0004698592885315801
205.462,35268434,2371,0.0004686061979027739
205.709,35308667,2381,0.00046732727043911383
205.946,35347874,2391,0.0004660389316681803
206.209,35391719,2401,0.0004647498296759759
206.477,35436315,2411,0.0004634350720566834
206.735,35478813,2421,0.000462114004198955
206.998,35522100,2431,0.00046077316473793796
207.249,35563769,2441,0.00045942564532561875
207.513,35606638,2451,0.00045805994962544623
207.763,35647725,2461,0.000456696406051298
208.035,35692954,2471,0.0004553274165425211
208.278,35732456,2481,0.000453905404234475
208.532,35774624,2491,0.0004527275417258343
208.772,35814318,2501,0.00045153171481745503
209.019,35855156,2511,0.0004503365871366214
209.257,35894740,2521,0.00044916184992365056
209.497,35934570,2531,0.00044798523528506544
209.727,35972666,2541,0.00044669794141111857
209.985,36014984,2551,0.00044542630861219706
210.231,36055230,2561,0.0004441586234054454
210.449,36091131,2571,0.0004428910205427003
210.697,36132976,2581,0.0004416489598424757
210.927,36171222,2591,0.0004403614887935423
211.172,36211794,2601,0.00043909583295649937
211.415,36252015,2611,0.0004378035026667889
211.647,36290529,2621,0.000436487598179474
211.895,36331123,2631,0.0004351237866629925
212.106,36365976,2641,0.00043377949888402656
212.354,36406672,2651,0.00043242187380962936
212.593,36446408,2661,0.00043105425401014294
212.823,36484680,2671,0.0004296754681385809
213.068,36524558,2681,0.0004282641680447702
213.282,36558914,2691,0.0004268828616554813
213.488,36594410,2701,0.00042547649812285995
213.701,36630932,2711,0.0004240562518288537
213.911,36666798,2721,0.0004226013588963639
214.135,36704840,2731,0.00042118571864639513
214.341,36739919,2741,0.00041968623102805157
214.558,36776591,2751,0.000418323786520812
214.772,36813260,2761,0.0004169769715427554
214.97,36846861,2771,0.00041559068813190256
215.184,36883737,2781,0.0004142040939710337
215.403,36921469,2791,0.0004128202828634804
215.602,36955487,2801,0.00041142649161187393
215.795,36988995,2811,0.0004100269919117133
216.028,37027473,2821,0.00040857484434364717
216.236,37061810,2831,0.00040713715422529065
216.457,37099073,2841,0.0004057077903476102
216.673,37135729,2851,0.00040423657082728007
216.901,37173899,2861,0.00040278768287137744
217.113,37209158,2871,0.0004013148292613452
217.323,37244437,2881,0.0003998029976054491
217.531,37278668,2891,0.00039833157146767356
217.741,37313756,2901,0.0003968608343258174
217.96,37349794,2911,0.0003953757771799696
218.184,37387495,2921,0.0003938900410432808
218.393,37423394,2931,0.00039235140068685434
218.597,37457343,2941,0.00039084237485229566
218.81,37493246,2951,0.0003893571950310329
219.027,37529189,2961,0.0003878546540136904
219.239,37563491,2971,0.0003863236883568221
219.446,37597344,2981,0.00038478740445506074
219.659,37632980,2991,0.000383255896071159
219.859,37666226,3001,0.000381706489001675
220.099,37703171,3011,0.00038016650764760573
220.302,37735813,3021,0.0003785837602005848
220.503,37769195,3031,0.0003770055714056742
220.706,37802308,3041,0.0003756617317425097
220.896,37833511,3051,0.00037431384104301413
221.116,37870219,3061,0.00037296731302028513
221.325,37904449,3071,0.00037159521669966056
221.5,37933559,3081,0.00037024486399363406
221.698,37967176,3091,0.00036889668360983764
221.901,38001044,3101,0.0003677573024744203
222.093,38033047,3111,0.00036662194786846007
222.315,38069249,3121,0.0003658077219325061
222.518,38102517,3131,0.00036498888647234877
222.699,38132974,3141,0.000364074759632493
222.898,38166958,3151,0.00036321290010070915
223.082,38198111,3161,0.0003623251467566105
223.271,38230123,3171,0.0003614272256762599
223.45,38260271,3181,0.0003605315782763043
223.654,38294384,3191,0.0003596441963691077
223.855,38327968,3201,0.00035876603722638165
224.058,38361597,3211,0.00035785933626179475
224.263,38395800,3221,0.0003569727248568747
224.446,38426130,3231,0.00035607504825645696
224.626,38455446,3241,0.0003551219304039413
224.806,38486335,3251,0.00035421414288362187
225.016,38520743,3261,0.000353305976277158
225.206,38552083,3271,0.000352528794097251
225.389,38583259,3281,0.00035183786007735203
225.573,38614499,3291,0.0003510979586809782
225.743,38643457,3301,0.0003503764312666642
225.941,38676633,3311,0.0003497574123968398
226.135,38708047,3321,0.0003491625640641167
226.323,38739676,3331,0.0003485536020063351
226.508,38770437,3341,0.0003479220465588042
226.687,38800136,3351,0.0003472851139562586
226.879,38831909,3361,0.0003466413202250565
227.063,38863182,3371,0.0003459819952328358
227.239,38893009,3381,0.0003453089809609816
227.427,38924654,3391,0.00034461658078298145
227.603,38954203,3401,0.0003439011487787816
227.8,38987340,3411,0.00034314557667633125
227.987,39017842,3421,0.000342377357787714
228.168,39047998,3431,0.0003415725792661004
228.351,39079010,3441,0.00034082211613593004
228.554,39112323,3451,0.0003400360297929391
228.743,39143947,3461,0.0003392180572012026
228.914,39172579,3471,0.00033836152379013336
229.097,39203463,3481,0.0003375254317275981
229.288,39235719,3491,0.0003366916743656814
229.461,39264514,3501,0.00033585508729864523
229.636,39293888,3511,0.00033499970796506753
229.814,39323897,3521,0.0003341436078655464
229.988,39352603,3531,0.0003334007352648258
230.175,39383900,3541,0.0003327902465479638
230.341,39411480,3551,0.0003322193430196265
230.517,39440592,3561,0.0003315813456658094
230.708,39472694,3571,0.00033095937576250664
230.879,39500860,3581,0.0003303197320205977
231.079,39533997,3591,0.00032965501818766826
231.255,39563501,3601,0.00032900211510238087
231.436,39593604,3611,0.00032833988389668195
231.623,39624373,3621,0.000327628047337462
231.811,39655234,3631,0.0003269340859537017
231.987,39684397,3641,0.000326237145939854
232.186,39717493,3651,0.00032552809939760154
232.367,39747564,3661,0.00032480201702870387
232.554,39778384,3671,0.00032406061628746825
232.719,39805479,3681,0.00032327575136663345
232.901,39835653,3691,0.00032246799522190304
233.077,39864637,3701,0.00032169671271772143
233.242,39892389,3711,0.0003209056096679045
233.406,39919894,3721,0.000320118340261041
233.584,39949195,3731,0.00031930702183981946
233.758,39978202,3741,0.0003185036116021469
233.937,40007424,3751,0.0003176317323728261
234.13,40039143,3761,0.0003169246278277322
234.295,40066264,3771,0.0003162163715790759
234.475,40095637,3781,0.00031546686475109054
234.648,40124194,3791,0.0003147429842729893
234.83,40153628,3801,0.0003140166104146271
235.005,40182433,3811,0.0003132675646339723
235.183,40211614,3821,0.00031251717640894475
235.357,40240085,3831,0.00031177687888553005
235.55,40271555,3841,0.00031106494623293554
235.72,40299622,3851,0.00031033291170603876
235.88,40326003,3861,0.0003096028425209965
236.06,40355459,3871,0.0003088633086734266
236.231,40383607,3881,0.0003080941726608718
236.409,40412913,3891,0.0003073246630080004
236.577,40440595,3901,0.00030657367592109436
236.739,40467292,3911,0.00030581525963514766
236.933,40498443,3921,0.00030504306735194137
237.09,40524316,3931,0.00030426784673813316
237.264,40553177,3941,0.0003034630522777918
237.422,40579479,3951,0.0003026709777201146
237.6,40609551,3961,0.0003018385652784287
237.769,40638183,3971,0.00030103428888850377
237.929,40664447,3981,0.0003002391015392864
238.108,40694177,3991,0.0002994327717870636
238.268,40720806,4001,0.00029861624939298177
238.449,40751206,4011,0.00029779938898823535
238.601,40777065,4021,0.0002969674293842924
238.788,40807647,4031,0.0002960979680113624
238.944,40833595,4041,0.000295239523429823
239.112,40860799,4051,0.00029440235009133356
239.277,40887986,4061,0.0002935739339819561
239.456,40916757,4071,0.00029270864066907425
239.626,40944550,4081,0.0002918631485764357
239.787,40970797,4091,0.0002910037770035359
239.957,40998641,4101,0.000290139235483591
240.106,41023375,4111,0.00028923647556065163
240.301,41055256,4121,0.0002883509113285991
240.46,41081742,4131,0.0002874710129875946
240.628,41109747,4141,0.0002866031070470152
240.77,41133939,4151,0.0002857293137068246
240.913,41158001,4161,0.00028485502716679365
241.08,41185145,4171,0.00028408116898388097
241.238,41211516,4181,0.0002832951839590418
241.4,41237817,4191,0.0002826001707357667
241.544,41262194,4201,0.0002819536866733082
241.71,41289764,4211,0.00028130143487430613
241.863,41315393,4221,0.0002806126650103224
242.029,41343033,4231,0.0002799575922859867
242.189,41369429,4241,0.0002792855183817271
242.341,41395202,4251,0.0002786198926996806
242.518,41424924,4261,0.00027792337854123245
242.679,41451294,4271,0.00027725439223509445
242.836,41477178,4281,0.0002765766320067496
242.988,41502049,4291,0.00027589592514543765
243.169,41531104,4301,0.0002751997347478965
243.341,41559554,4311,0.00027451568622464603
243.509,41587126,4321,0.00027382456045915195
243.669,41613481,4331,0.0002730987629614712
243.82,41638619,4341,0.00027237729150181647
243.982,41665290,4351,0.00027164750493005943
244.143,41692021,4361,0.0002709176370909016
244.304,41718102,4371,0.00027018338156265843
244.446,41741372,4381,0.0002694799805349757
244.615,41768523,4391,0.0002687619731077829
244.774,41794546,4401,0.0002680059873205864
244.927,41819799,4411,0.0002672744291215591
245.1,41847606,4421,0.00026649497170132784
245.281,41876990,4431,0.00026576299835980206
245.436,41902278,4441,0.0002649809792837701
245.613,41930870,4451,0.0002642312767448824
245.766,41955750,4461,0.000263498751372342
245.917,41979732,4471,0.0002627899496873264
246.07,42004849,4481,0.00026225031957559375
246.232,42030355,4491,0.0002617380304440302
246.379,42054209,4501,0.00026137163197839305
246.553,42082096,4511,0.00026100645174201124
246.709,42107093,4521,0.00026061640727047253
246.891,42136249,4531,0.00026025198771712117
247.064,42164165,4541,0.0002598857601893798
247.225,42189963,4551,0.00025949361392750385
